ROC,ATR_P,ATR_M,Full_CAGR,Full_Calmar,2020_CAGR,2020_Calmar,2021_CAGR,2021_Calmar,2022_CAGR,2022_Calmar,2023_CAGR,2023_Calmar,2024_CAGR,2024_Calmar,2025_CAGR,2025_Calmar
10,10,1.5,0.22436594702252788,1.6434178549623142,0.5622848438509853,6.035826070239506,0.3540980060739436,2.5936689293141395,0.033968733987136845,0.25972467811386085,0.009250256213854113,0.07784770439253763,0.2817175092095754,2.804479715095158,0.2515503832160819,4.5127416134588385
10,10,2.0,0.25879157657500884,1.3876112023876386,0.5442235795382651,3.9207827629083893,0.40786829602045116,2.186943733435989,0.025130034702174342,0.2077804991681577,0.050054447852418305,0.36176400557209065,0.3724396821475229,4.7987187904043935,0.2871659439628269,5.303111846458167
10,10,2.5,0.3057155633599824,1.9246261819631973,1.0007688014403104,9.507689992642469,0.45432783019297895,2.8602117195921464,0.028540591103953794,0.304504200345801,0.06822729898268709,0.5857695586802284,0.30187183461189515,5.2149699097646085,0.3132289041849472,6.988421228840459
10,10,3.0,0.338786684511281,2.3278382079078574,1.1375617726804972,11.290914663515718,0.49351071426053617,3.390962954535244,0.023064363574143654,0.2529591907380861,0.15977838527612387,1.9620827989230214,0.32311990749947306,6.7861216651219864,0.2831154600401893,6.817515623225613
10,10,3.5,0.3451584349090211,2.528370126360031,1.2188331392733418,11.816810939392091,0.525549709557158,3.849780423044733,0.05926995126430912,0.7176073978669176,0.16572479037396803,2.3068548105200017,0.26565761607485605,5.625866216850686,0.26311856892913865,6.599879590289264
10,10,4.0,0.3481155829012226,2.5909616058768723,1.3459024431159334,13.490714605209384,0.49132248208702944,3.6568247723424445,0.05928579006042667,0.897617413420444,0.16784002738872306,2.2318496236940515,0.27625193149916005,5.646857201117216,0.24509453502850875,6.237856292758384
10,15,1.5,0.2174589775778195,1.189485014238324,0.42365372387903455,2.820873613232829,0.3808962177135158,2.0834749983506664,0.025592123799768274,0.1780027224534697,0.030336667570583842,0.22560111837733554,0.3125361608081121,3.3831025731005666,0.2234288155211719,3.9703236625882563
10,15,2.0,0.26368016857117693,1.7140432055212422,0.5907664935109369,5.952615180564803,0.42379454803569616,2.7548608207198115,0.026284010355325238,0.2240916039824923,0.05410943034804738,0.4105536701526189,0.3647984355396199,5.183230775851755,0.2749865304448955,5.23237218805665
10,15,2.5,0.2786463329384461,1.7709873895507393,0.8818301103146238,9.2748910209511,0.31624680851481224,2.0099640428037535,0.021995666158496574,0.19872585344210314,0.05205501286030123,0.3850593224505175,0.32870749375601993,4.8396809394254285,0.34557658540365455,6.654815470207387
10,15,3.0,0.3331703994065316,2.1013400829785676,1.1593562356164622,11.63057316937153,0.46987787253295643,2.963568220397069,0.03060788172719664,0.35615400824159743,0.1386739129568353,1.6420341205533178,0.310420587687374,5.832861781640641,0.2898868033015547,6.788925378834387
10,15,3.5,0.3395398627164523,2.392368296632263,1.1475427807671488,11.417625378875751,0.510426564236494,3.596421110230808,0.033429529120512225,0.3362489770989304,0.16152956279296204,2.1251924789429375,0.3031036657453552,6.497427683715146,0.2733533816714151,6.650973862238477
10,15,4.0,0.3482464833259544,2.6640804540100476,1.314134818995492,13.230551583480898,0.5231145389198779,4.0018184965862655,0.06499945327111023,1.0349450843851444,0.1542892243710392,1.893648122353454,0.2619953233403254,5.788217761583177,0.2534256282258529,6.453624090513076
10,20,1.5,0.2109620626568547,1.0459793425335442,0.32332675152386736,1.8942160629126477,0.4033780107472502,2.000004461276954,0.02642646948077454,0.18546532609268723,0.016164406712959378,0.12357115757044078,0.32572163861050973,3.268244346840473,0.22941587888378034,3.9388804541583937
10,20,2.0,0.2598128222363727,1.7377657040390373,0.544607225042929,5.094045896793443,0.4652343341395404,3.1117335289695682,0.023512351458655045,0.21121173052965403,0.04827359731336345,0.3767435970000712,0.33782566310645556,5.1286048179110715,0.2784829768455397,6.169258953961155
10,20,2.5,0.2728787148141665,2.0147563028324407,0.7149049878357034,6.4906831567483305,0.4007901509673817,2.976234468190918,0.030787374943227475,0.2595526979707568,0.06296053293083381,0.46485901488679043,0.3244151035847007,4.410182676593246,0.30352960210751,5.876614714245192
10,20,3.0,0.30034230358598646,1.950127907552229,1.0066373031831137,11.868328248050961,0.3735861815649608,2.4257017071760143,0.02949348641144156,0.29553220580085227,0.10109036848405473,0.7967389842980014,0.3134323941710806,5.291998924638624,0.30127618453333227,6.044647071262561
10,20,3.5,0.3329540920496836,2.274837654681031,1.1202654338939944,11.058197597627633,0.5141377998168439,3.5127366043715393,0.021318309591873197,0.2240749830909065,0.13379679135172284,1.6453752871548433,0.3079169211199553,6.34701238560744,0.2867353782597417,6.7252358918606765
10,20,4.0,0.3488882698371747,2.5067724516599084,1.270034324252665,11.780289753318065,0.4997299083498916,3.590574048553353,0.0791703884790027,1.3684417969719576,0.15101386561554486,1.9342679926481003,0.2900349301520404,6.428739117994438,0.2527125594332318,6.455786083511603
11,10,1.5,0.17014229433827222,0.773116337030364,0.35490295656296467,2.8406512124381003,0.15567774765072584,1.0159632423123202,0.08763105527031256,0.705843952135574,-0.08656794642638743,-0.4274204828851942,0.21670865291313768,0.9847110654913889,0.367659885443685,4.717443977305378
11,10,2.0,0.2076736864783597,1.1652019510320621,0.34797209721298716,2.769747109701166,0.22571362237173065,1.344826659331109,0.04062591260779169,0.3771249339516888,0.0014798186289521897,0.00938122116304943,0.2668785737014707,1.497384863912509,0.4194526490919499,5.66534759609864
11,10,2.5,0.254224330155407,1.6832500429687363,0.8403520665762063,6.959810637197112,0.1893482268112665,1.2536975147944533,0.04862428610318714,0.5115700306486471,0.04949349731806585,0.3805469907692123,0.22034281345882256,1.6542569164666023,0.42550623748462413,7.089377615965654
11,10,3.0,0.2837159460172942,1.9207297888445465,0.8667153256041311,7.165887583758378,0.21833418412400118,1.478101521105467,0.03931018990224322,0.4123657321628279,0.18063433442428933,1.843741637971347,0.2297384907604174,2.3031598675409075,0.4014770675226811,7.715236969476223
11,10,3.5,0.2929620381572553,1.961332917724496,0.9215857066006896,6.617208170304344,0.2413238613347337,1.6156237717534228,0.07868684643125001,0.9090771644173516,0.1809035108849013,2.108483423219545,0.20553707841488533,2.4228255110304913,0.38060770619431694,7.708013435545728
11,10,4.0,0.29324114429797765,1.978970912622351,1.0127198746997137,6.834454215022332,0.2147926349301439,1.4890481199946495,0.0780634245764158,1.1722974846650982,0.16107375268169122,1.6789529058754513,0.22883429807736477,2.4399652031961296,0.36464943854158305,7.147007569284595
11,15,1.5,0.15162440217634798,0.7002393861632173,0.20844320234445557,1.12159015681223,0.16859356172206175,0.7880011846829666,0.08072585921672015,0.5665556326508113,-0.059443461054089264,-0.307463860140622,0.25596368356196675,1.182104266099898,0.2717386243045168,3.3829850429171704
11,15,2.0,0.212505929431845,1.2460869551288014,0.4310873011061711,3.8535030541962034,0.23625812738019492,1.7047761736087899,0.041039232320458696,0.40018323454348087,-0.007478053581637112,-0.04849944845766631,0.26056281318410845,1.5278817083761103,0.39968096776690754,5.585318252221287
11,15,2.5,0.23902844948415614,1.5050154034563583,0.7279225753149903,7.094614875421651,0.14103473892226015,0.8880091677727969,0.04526469723032789,0.5214115461970608,0.039442145540396156,0.2694654374579174,0.23356935692576175,1.9637698075256051,0.45051456558592995,6.825300166012554
11,15,3.0,0.2815663098505301,1.7750371993018093,0.9012673656628065,7.50564009893082,0.21772115248741875,1.3725475357658536,0.05247377801447328,0.6210262818638836,0.1380935323775334,1.383940400398638,0.23146468763709716,2.3577632930396706,0.40223966561002955,7.657160414961439
11,15,3.5,0.2864116280398905,1.9204077548710516,0.841023723746422,5.884160603598953,0.2498065118462658,1.6749681772698164,0.043357320510949426,0.45967103389791425,0.18165750681822512,1.8894470171338678,0.22555050603568128,2.309087248116535,0.3946129901978841,7.704636721829379
11,15,4.0,0.29510804998983464,1.8873764696674187,0.9827045804051604,6.2849302204903665,0.25004606457066547,1.7709361586347017,0.08638646029693842,1.3927375925263112,0.15325945869428192,1.6611103251738657,0.20830915914343628,2.3800609135858957,0.37338023653161145,7.618010026690257
11,20,1.5,0.14711718737087076,0.6489717689158893,0.13429201600403595,0.6811281918620898,0.19281086105126133,0.8505383211765258,0.0823809539903142,0.594381061282856,-0.08021767769500665,-0.4413670539860612,0.27588110612471706,1.3375329450312317,0.27575258143362547,3.390179353039836
11,20,2.0,0.21222538280142467,1.349653252074358,0.3906199102922605,3.4232481928324745,0.27933430817505966,1.9869648791951846,0.07113934528639954,0.7359977184403603,-0.01123774881454942,-0.07777094659330218,0.21839600044607388,1.3888954674091785,0.3915004068946557,6.446776234128012
11,20,2.5,0.2257498510707634,1.533855167749857,0.574990483081711,5.437821077318569,0.20582449022352134,1.541619324130089,0.05890941938862304,0.5914846535469835,0.02165936866026197,0.14716436973120425,0.21712323447260906,1.6015697327100975,0.41291925985265054,6.051509403538487
11,20,3.0,0.2510573661854776,1.2616515777020225,0.771577492705888,7.364878910319676,0.143282526623689,0.720045097734185,0.05219274728815759,0.4431836316438233,0.092275459212253,0.6436746233077373,0.24967059356636967,2.567899892164637,0.40241513602494683,6.638645102140117
11,20,3.5,0.27851879624720377,1.836160918376664,0.8028050183678104,5.292566317482182,0.247274826063707,1.6340270321034527,0.030138910776758898,0.31767220885025155,0.14761885688000964,1.3764403304686144,0.23333185308815785,2.2768400612168582,0.4182117390200888,7.779592281666772
11,20,4.0,0.29480337889870656,1.7829869186154315,0.9291500224608813,5.619550025741765,0.23411785997973444,1.6019803096147454,0.10576100229245977,2.2289862096577564,0.14989854202573016,1.5785160500059054,0.22968971627675971,2.3478927083235366,0.3710028950428119,7.572182989887581
12,10,1.5,0.22266634642952932,1.3891485525637117,0.6155701092790542,4.239239158097577,0.4603256031248659,3.5128320418679877,0.03227903679360877,0.3339719302433802,-0.03822609961497292,-0.25982877202848614,0.2847189275833293,1.7762759953716198,0.1663750671032047,2.3672080255785595
12,10,2.0,0.24881821843809804,1.6850068547211048,0.6570163085625722,4.9249874990644384,0.4880773723598546,3.608130681594832,0.0021848925971912347,0.02790451235301674,0.0019076183841044703,0.014967928423556952,0.33052919274966186,2.238356817136251,0.2120366990263547,3.1621559491639086
12,10,2.5,0.2973199571695577,2.5798603748665583,1.2193459006088099,10.942391246936195,0.446611882926929,3.8752740000249757,0.004469694277033032,0.04816901528443775,0.045924373720420464,0.44589590715852556,0.27803518775983305,2.5410196980601514,0.24968338606013885,4.034335256029108
12,10,3.0,0.320064397796763,2.7880424586814287,1.2162529473022894,10.78668553346618,0.4923729766635343,4.289001756818257,-0.0009561876453139107,-0.010146476459728812,0.11931487838027754,1.317840062660871,0.27454685895825603,2.696604318213742,0.26247638938528306,3.833064820145022
12,10,3.5,0.3296491295755357,3.0509493245146837,1.416239434342529,13.435245790301693,0.4629172752305142,4.284364863906284,0.04465107222051534,0.5196206262429117,0.10781975718432801,1.1667346843217439,0.2484822948946126,2.508412446480555,0.2461830136071137,3.9497499353615377
12,10,4.0,0.32805358155238307,2.570750434309094,1.5365103186484568,13.562570852932463,0.401735039148408,3.148145865321215,0.04990152633089773,0.6994430108248948,0.10016618907921071,1.057877898875313,0.2648205872740965,2.5865634938833257,0.2338945637010068,3.7533753388663422
12,15,1.5,0.2130558919037635,1.0787396529997435,0.4615724592573127,2.3425424147189213,0.470764460309844,2.3835637025642007,0.025226778049908027,0.21290428713142406,-0.01706755360700618,-0.1266063385825985,0.3126689990771052,2.0526707877279904,0.14887449269245856,2.0582741610232937
12,15,2.0,0.24905638296138033,1.763686394130589,0.7289078715064077,5.707414943353827,0.4956166723810542,4.11258348736683,0.003067265592566537,0.04101609867887948,0.004244253476448634,0.034898691200388805,0.31964658486978803,2.2635691001445726,0.17755563303281208,2.4528663679606053
12,15,2.5,0.2722399011243266,2.2714845576842158,1.1075600792495077,9.594657113442258,0.3598485165845058,3.0024634344617662,0.0037335093273094255,0.0564143889895067,0.010280856638264835,0.09183119786009866,0.27162792280247294,2.278247619309327,0.28265466056940114,3.9615561351271382
12,15,3.0,0.31854863314370396,2.794477393261969,1.2765238115993722,11.483149864463789,0.4737425775872983,4.155920903594451,0.009092340334621918,0.10658810027769336,0.09104380707086923,1.0286712994438685,0.27505961971410287,2.8285608803831597,0.2650381115411313,3.9947457209101014
12,15,3.5,0.3222228850033506,2.5806861379997756,1.2401403242503193,9.93229560319425,0.49068717901610537,4.3085143406934,0.018948941445146694,0.20135774604552334,0.1081272213042821,1.09423694111054,0.2701797965060653,2.4641843397609393,0.258357019623638,3.9832523985617234
12,15,4.0,0.33096198688485523,2.742564796724012,1.464072392138704,12.132249507953574,0.47308852143157254,4.353423816164009,0.050999369794675786,0.691440792714737,0.08749274567232157,0.95814623412917,0.24845400055563927,2.431079121378091,0.2428572331073473,3.9444178316254828
12,20,1.5,0.20810430706675587,1.018427424086002,0.42231015927532556,2.07543418154814,0.4888668315089171,2.3924319248952552,0.02533134230018841,0.22304661766777756,-0.024789379430444014,-0.23002698964953455,0.3172981435074784,2.517348137730927,0.13164445373267242,1.8055799395618424
12,20,2.0,0.24506122777555195,1.8505443315919006,0.6862636543872629,5.284055339813821,0.5318631383539907,4.33988541218234,0.021740823679940124,0.29776110646585846,0.001020760034956547,0.008931893240575068,0.27185371246732015,2.052863895260392,0.17423527807155192,2.8498097190290257
12,20,2.5,0.26328522036809465,2.168860031903331,0.8944281701499326,8.937567886810307,0.45648380998531257,4.285086452477976,0.011444145911054138,0.15586380061730123,0.015846128205368792,0.14246576051926357,0.2712183216953894,2.234210401262286,0.23166963570455468,3.2465843204094726
12,20,3.0,0.2909621999786267,2.0605442283031206,1.1561271162661608,11.873688751420493,0.43264878390498107,3.063944232698472,0.005883516320185578,0.09252317697688228,0.06507709430324948,0.7152584954462077,0.26158226339225665,2.8815973732204414,0.24318428523989088,3.283569094815777
12,20,3.5,0.32154753175052897,2.4260737673104185,1.1921133063258083,8.994486147642384,0.5142862822056344,4.450696019398505,0.008884607266491651,0.0951623609165832,0.09946623953434397,1.1300966395985768,0.2851573149484836,3.023997370241437,0.2616716254959195,4.013107842578315
12,20,4.0,0.3308607555403835,2.551306756730552,1.3605684914605032,10.49150594965075,0.47139418926789833,4.280535446832732,0.06465983242025808,1.0227819881111384,0.09050378453653152,0.9609300854918515,0.26886294550347145,2.539349857645544,0.24174599987204615,3.9280801794411713
13,10,1.5,0.18727615189232294,1.0919403876808724,0.6199218382395999,4.21595510004586,0.16898980393700658,1.0559584369165274,0.062002857344505724,0.5689808936731635,0.0006517278618947131,0.004270690886706989,0.2149138363963059,1.2530858598989927,0.21286842308834908,2.0569785727025365
13,10,2.0,0.22723516127723098,1.2270758111188376,0.6366565911840005,4.360519651289269,0.29218023715572117,1.5777809186111877,0.022673577906026976,0.25583035231179346,0.048842235494995334,0.40952730997956643,0.26498669900693095,1.7640173106592574,0.2644679030959427,2.9291472185905936
13,10,2.5,0.2836148930973943,1.6400177544773475,1.0568927955583058,8.57633807702439,0.35476250369388107,2.0514324841220617,0.026506074127590207,0.26169383529821244,0.09655352102099402,1.0708732054822365,0.250821287897681,2.216432165276839,0.2785618086138357,3.6802439657772945
13,10,3.0,0.29961986870828694,1.7704254563563722,0.9493802447881674,7.086338143502459,0.4051836127107118,2.3941916319972174,0.01953981590471021,0.17952929116740118,0.17928393238103002,2.083375522690079,0.2588767752514636,2.3658279784463296,0.27816112922720926,3.3507312769430264
13,10,3.5,0.3120066025827195,2.0366857290883327,1.0807441194617566,8.527710515451128,0.42973848582534124,2.805204229895924,0.06124513386330532,0.6686796630350839,0.18086745980799046,2.523793430777093,0.21643413018513935,2.2890667686435364,0.25744818686410453,3.1562438082581528
13,10,4.0,0.3115414348608152,2.1189345235891697,1.185909424374454,8.74012708315786,0.36526317245590345,2.4843204136178487,0.06211189386300697,0.775037255693307,0.1806038350556225,2.3646328747082688,0.23737785190974892,2.454270190912221,0.2465122964728539,3.045736659345591
13,15,1.5,0.1718161885072964,0.7939481702054318,0.47292328505436143,2.3766292852698236,0.1833943778606486,0.8474500103477862,0.05421711235984694,0.4362208485698355,0.028890862606524514,0.20660734606525666,0.2520726539155731,1.5024591454849041,0.1409253606997416,1.3436086828063407
13,15,2.0,0.22383742029150056,1.3470212049555024,0.7409048485706442,5.3622031334397136,0.2423364749409589,1.458345838933145,0.01891551966392968,0.21589107966763263,0.05332650060768218,0.45631401372937125,0.2633216445602138,1.7821989544974954,0.2399407483974254,2.4375004964933877
13,15,2.5,0.25102397620475725,1.5037758357291986,0.9474593360220862,7.438332656250523,0.22419105145015505,1.3430314141883772,0.024689739962824975,0.2853638032400357,0.05758366055695441,0.48187041971100475,0.24808927316230478,1.9989700067265865,0.3216240104268513,3.482762164727949
13,15,3.0,0.2955657616561522,1.6201379753328284,0.9608416344152115,7.492233071527151,0.407381587291743,2.233054249329965,0.02988947598070002,0.2942917523016804,0.13917445646856086,1.5675136387172743,0.2479038439142296,2.2031706201947476,0.29056796649480754,3.4102025909759868
13,15,3.5,0.29967839237161487,1.7703728543412474,0.9389789670064397,6.354496846737371,0.4134364205702459,2.442407042366738,0.03319940730446014,0.29292963533379673,0.18175961851254385,2.137181033994638,0.24678299528284398,2.284175318530873,0.26847788522993743,3.10105631227471
13,15,4.0,0.3138792404262081,2.1305884482182775,1.1175497445231026,8.10437925939053,0.43182449578203985,2.931191884884132,0.06873299801038746,0.8783394678760642,0.16778216779350852,2.2685426222624336,0.21801250806518646,2.2401901984961077,0.2537736184985204,3.1724246530545464
13,20,1.5,0.1649890517788959,0.7230677661264701,0.4170098163685274,1.9401398281466393,0.21077006257711894,0.9237039468425361,0.05430359391131012,0.436235101972066,0.01562563932658767,0.11967270950329702,0.24991463937411718,1.5150842526344956,0.1206005453269039,1.1330838001204582
13,20,2.0,0.2188693177697072,1.3085287301427964,0.7030027344916936,4.9574013790691565,0.24838313605820472,1.4849795893141502,0.04174636942735899,0.4714725109226832,0.049727041070864786,0.4554405889817166,0.21671802454363176,1.5627921575209047,0.24770503310316982,3.103747694296426
13,20,2.5,0.2399830292243068,1.7076579975624393,0.891278703056479,7.92254621295237,0.27358458502342664,2.1982180573560854,0.03296477247807572,0.40051082455665166,0.03343762028561703,0.2985129278139511,0.23323270246105277,1.6596243948502396,0.26631524033996423,2.8613062574995736
13,20,3.0,0.2679506070198341,1.8102633720011672,0.9558778414899929,8.733364424254422,0.31912036649422615,2.1559641799256104,0.027454499486371464,0.331462636162506,0.11377464156661188,1.102705185427251,0.21973630686144063,2.0717950209274627,0.2785970562962008,2.8981406878968667
13,20,3.5,0.29440703418546454,1.6469981978203745,0.8928330960962974,5.902861394450575,0.41883111587380895,2.3430625390584408,0.021720370311180126,0.19881055386111732,0.1522585087870707,1.7210287729067861,0.26939777985472446,2.39399887780366,0.27927314195979647,3.1303131252452134
13,20,4.0,0.31154441819242007,1.8908539642640574,1.0457867883480558,7.074666779443916,0.4066639635040883,2.4681622350239487,0.08569884356943969,1.171575779190732,0.1641797500139368,2.0185534554399815,0.2397667282142093,2.3123522678623085,0.2556544462140873,3.1604393948234053
14,10,1.5,0.23433683802965377,1.6856824561233932,0.777765048393922,7.694126232567015,0.4111384021742228,3.375598616772704,0.03951139497292,0.5048147667909066,0.029023459467173218,0.2343244517956124,0.2408983884719227,1.7328824207491074,0.14782098014240508,2.514728581051245
14,10,2.0,0.25826003414935794,1.9131008089195127,0.8511197439185052,8.781091078841358,0.41653732141931044,3.3731651257869206,-0.005286297400707185,-0.05979875392253702,0.03924145945783075,0.36447162320881127,0.3300958887544647,2.445235918430788,0.2063288795921534,3.1854408037971624
14,10,2.5,0.30946785180586023,2.371619750135403,1.5234266876337181,15.04568680708308,0.39529662907777996,3.029372153560342,-0.00602286524746265,-0.06645443166075542,0.11172593269188758,1.3164332156652812,0.26063414524635475,3.161336639685194,0.21234160253635892,4.111250774182738
14,10,3.0,0.3246620759126866,2.5281803756127563,1.543086929777219,14.948682866334341,0.43258731049124144,3.368606407288492,-0.005576970906414513,-0.05920387180493822,0.1535126892940768,1.7344602000245983,0.24692975890144986,3.084596551546056,0.22205990586284607,4.4991535089715455
14,10,3.5,0.3341866538039351,2.7328553831517204,1.7122400859218838,16.35779346168772,0.43712029718181733,3.5746088110959233,0.02452513881230578,0.3052654041399807,0.1657257433895638,2.5656410153091844,0.20730380257203374,3.03538227650658,0.2027978431265418,3.9223124762057964
14,10,4.0,0.3338167755808603,2.747684558411412,1.8194324309232415,16.931595366666894,0.39296430987985964,3.234534766519371,0.02121037837125561,0.2830380612591284,0.16120753214938977,2.4002562157447276,0.22808162845800362,3.1881811909215454,0.19321786301000365,3.6870819568184454
14,15,1.5,0.22506015940694946,1.4874819915535502,0.6268376252072045,4.142935300414256,0.42990567832311855,3.0027142673485483,0.02931272061161727,0.3062362238559773,0.04336688498182251,0.37886612224010013,0.2680053775999489,1.9559939147892855,0.13471379988843335,2.268212952855348
14,15,2.0,0.2618769192350072,2.0867404956251834,0.9403450685887267,10.056503853646342,0.4144431745646926,3.5286127800088014,-0.004716091131124922,-0.05503521131139579,0.052970614983759656,0.5311619056794994,0.3199776853306615,2.549710740550996,0.18041391070345036,3.368542656478534
14,15,2.5,0.2849308473161798,2.3657586105630863,1.3082806620177414,14.659594232987848,0.3282490441364865,2.72542622144829,-0.004994572268226305,-0.06279094066633502,0.0808547965388291,0.7701107009865518,0.2886791267398181,3.3496241393244026,0.22351968351021934,3.7867084188136286
14,15,3.0,0.3268872165764667,2.4562411666851154,1.5803218869680657,15.534410708397019,0.43631429439566727,3.2784797849600587,0.002926833772176174,0.03492751818590493,0.12291666129480627,1.4819266327859097,0.2714481955455863,3.4498892996058284,0.21658701708987182,4.432828128829453
14,15,3.5,0.3261818208411278,2.4882732039224327,1.576882446869138,13.261361586092724,0.4399662970087417,3.356276400238287,-0.00018942988778647418,-0.0020403627369308015,0.16094078942762646,2.0600334986469195,0.2334482513363234,3.0374893645501158,0.21123360627472598,3.927606325884576
14,15,4.0,0.33754513605696745,2.979350458413183,1.7774948938666353,16.39693248496149,0.45450878064878464,4.011732948657377,0.02419637658901297,0.3250099617879987,0.15135137590566505,2.1931061682537933,0.2095022238538784,2.974500738647418,0.19845847030993835,3.8545182431869964
14,20,1.5,0.22489692323163735,1.433067507624264,0.5931254173765961,3.7794592801655003,0.4615667640542527,3.1555577343823713,0.02903509487920286,0.3061821880307681,0.044430090247922216,0.42526720997496664,0.2607672833946595,1.9820009801282363,0.12784701114417296,2.1530668450858905
14,20,2.0,0.2605887238746787,2.1981483339390073,0.9147293536675354,9.720781457198628,0.4423158803082756,3.731074395383219,0.004718752283344285,0.05346395332215229,0.05644476092175066,0.6128212996410037,0.278561919227827,2.3820340693093103,0.18420697607477265,3.6418335433615474
14,20,2.5,0.27453487425885226,2.6526107254988722,1.0809306761793298,11.404773285054928,0.4171792933907479,4.060887873272642,0.0022960717093658545,0.026731078511628165,0.06280231495879152,0.6168266282116888,0.28287721540678157,2.733216089988569,0.2015972656012599,4.245031611651254
14,20,3.0,0.3025318023193928,2.3806347220679713,1.4084757130695476,16.305286492628237,0.40430470596533397,3.1814897274846192,-0.0004710074992442248,-0.006622320983779554,0.11307681969015548,1.1801139750470668,0.25761989930555074,3.6483712681199023,0.20241226169433002,3.801385732735806
14,20,3.5,0.3218477337870145,2.509793931919492,1.5481996445695891,12.927618656346798,0.442518226633269,3.450791922316041,-0.009681245203886024,-0.10056081207218227,0.13080730782831385,1.5120023480902307,0.2569140472635705,3.2314496346070354,0.21652533646531036,3.9386764457931154
14,20,4.0,0.3325306661669942,2.545290909128608,1.7001189768501845,14.497127154668311,0.4268306279055383,3.267091512095419,0.028812882351131996,0.3970304505020719,0.14574005024375536,1.926743185202812,0.22744182035667015,2.9290920597594305,0.20249037019532956,3.8403758026829578
15,10,1.5,0.2357587601283011,1.4778981540693163,0.8950879624648087,8.505238313472814,0.3811825542315326,2.745858908399779,0.04249626928835104,0.5071675061666915,-0.04471030367908113,-0.29909887800994467,0.2736978411429729,1.7157264229665403,0.17693154725458649,2.944199176380031
15,10,2.0,0.26189604423209567,1.797065366473851,0.9529077204043166,9.413263528386267,0.40252758383911824,2.8102792277966326,0.018168529186896265,0.2541665105105314,-0.022281300085011058,-0.17457157245700408,0.35065636695441915,2.4061165736007952,0.21196411509653745,3.6840838963408027
15,10,2.5,0.30865079103457127,1.924215805561505,1.6133811613304183,15.271566206568407,0.341980110149803,2.1320001511488416,-0.0006960784352696425,-0.007150450745371841,0.06495693098798938,0.6510677856686405,0.29452569208233026,3.223959296916358,0.23278062444153647,4.717311279212446
15,10,3.0,0.33412398382264885,2.0925584971398443,1.6252678385206667,15.264965818182358,0.4014620178193715,2.5142845091681436,-0.004984663084877217,-0.04961892031122132,0.11091025836726764,1.0119945875917473,0.3257863036524322,4.004744326817737,0.23485191900088753,4.671180058376509
15,10,3.5,0.34343022665324274,2.292566259182586,1.7990533773490673,16.574763629272987,0.4222243674390256,2.818556036923259,0.024520087708159943,0.2955642806101676,0.11169837592851262,1.423405742468393,0.27544720896292785,3.6821411788013894,0.2211268701226483,4.4995686234706485
15,10,4.0,0.3479332966450168,2.498360416779089,1.9026400623522872,17.163924714025356,0.36814205555370383,2.643470884263916,0.03240896278724703,0.4779465930608011,0.11610106890008987,1.4307194418085647,0.31507510297989283,4.390676654778935,0.20865210111445376,4.289862859127366
15,15,1.5,0.22197665206632577,1.269630563096727,0.7414045512876881,5.06786027303709,0.38422392408088446,2.206931932453821,0.032994581626820674,0.31440581069082685,-0.056979550232060916,-0.3633845727725156,0.31665353351051895,1.811149957957752,0.16571228634281576,2.1464688453623135
15,15,2.0,0.264186107013622,1.8579551125655418,1.0466895968678536,10.93204904019027,0.39157219224118744,2.7538297328992347,0.018115584875008084,0.25982133199495294,-0.019890764873314648,-0.16518979186774513,0.35887383586920363,2.5973752606585787,0.18373938985508076,3.374718499109887
15,15,2.5,0.28552010452242116,1.9768572474645043,1.3764821263812808,15.068204711484002,0.3134168419010612,2.1700060541302286,-0.0018932981652979297,-0.023931563254368984,0.01305672562747584,0.11050210352035358,0.32557151663015804,3.08613864399363,0.24965315265023658,4.4447802152413765
15,15,3.0,0.33544854892047415,2.0486894467842722,1.6672272815163458,15.901480229141464,0.3924866019361559,2.397038717199664,0.00353059957576618,0.038810048727871534,0.0928528520202263,0.9146516162238303,0.34285073460323945,4.989245877573591,0.2297193574896521,4.818960597717518
15,15,3.5,0.33142052631876795,1.9992052719957008,1.6253805094382532,13.295552075188994,0.3986418319517193,2.404699735795363,0.00012017088894911154,0.0011449731997962688,0.10265553818843642,0.9826861819661852,0.3148006468810898,3.449937578764798,0.2360686531377656,4.522496710035412
15,15,4.0,0.3489857287661118,2.5313509837841854,1.873030687492348,16.754171798653378,0.42528814405609716,3.084806836240722,0.03074868773216477,0.4298706127150128,0.10672669602689822,1.3647829018283644,0.2767804616728855,3.894033027521841,0.2216643874965758,4.558751688108374
15,20,1.5,0.20680202777387313,1.1485488910635617,0.7232823132697679,4.982970187091108,0.27733144261529974,1.746070470503455,0.0358935496124837,0.315022734524701,-0.06424972563752074,-0.4139442524555779,0.34039227309116815,1.8904900111180576,0.16607343581864797,2.118677600254604
15,20,2.0,0.26299536322759365,1.8546312018787534,1.0206941749567129,10.56047429862476,0.414548703782575,2.9233783869726024,0.01737428998719981,0.20238722930234668,-0.010913402919265791,-0.09549373262729388,0.3310518227863506,2.458781517482689,0.18713051444829398,3.4395216624811464
15,20,2.5,0.276279635558051,2.0796936872014045,1.1630216895166297,12.186965539835802,0.37155066229306155,2.7968459031936908,0.005452658914940178,0.06173741621405213,-0.0006165677066155562,-0.00528211661405942,0.3400040779803326,2.959851038529385,0.2285231989777945,4.2768549026020874
15,20,3.0,0.3134115581656163,2.165441853182298,1.464559451284992,16.076352202998617,0.39194119422408,2.7080235040680347,0.00014966624608470092,0.0019817561136978865,0.07724713058732102,0.7367043329123114,0.3334059732716639,5.0592213532349115,0.21196334792945937,4.077547474500435
15,20,3.5,0.33218324003103916,2.0396827791262417,1.6050118061113126,13.038800797448872,0.4062145718860213,2.494252469897749,-0.009458534558287601,-0.09089377200833139,0.09923666947105181,0.9131394473509947,0.34046191161269856,4.791468499778212,0.2320340634740179,4.472808529111507
15,20,4.0,0.340972529928939,2.058323088741543,1.715724665074343,12.926443962037888,0.3961187669179178,2.3912202076833067,0.044133966484368514,0.6392789346374576,0.09614974831453638,1.1149479116568202,0.3018107827402092,3.5399805146763104,0.2259158705604376,4.482595608303316
16,10,1.5,0.2183083251972413,1.0940983685501364,0.6046123428022852,4.411305410113217,0.3803460531962075,1.9061847316655272,0.04379315699302122,0.3772759207198908,-0.012376433302509038,-0.07387564070505234,0.33315581008553896,1.7764111105638924,0.12780360249626166,1.4276940666304634
16,10,2.0,0.24719894466046277,1.3068020599277979,0.656166352470696,5.141787713018608,0.3900597530320433,2.062026961552515,0.012030499992298438,0.13636353670116613,-0.01109842187751775,-0.07406711406042042,0.4352677266282221,2.583236056233263,0.19440729239470755,2.2654171818243007
16,10,2.5,0.30105542593071677,1.7420481930400222,1.2293867326844925,9.476942329152578,0.3512556670068687,2.0325303824459344,-0.0011207064114573395,-0.009994648732221537,0.08433965550083444,0.9206282925098862,0.3747344984316767,3.5645203570675523,0.21855052664467434,3.057567674712618
16,10,3.0,0.33044406388147807,1.9737704632236797,1.229041246883313,9.398494998516604,0.42027713498968455,2.5103510278473102,-0.001319060018156959,-0.011896765793580302,0.14650054778089872,1.5117394088341798,0.4035194849374475,4.447398742361099,0.22110441087724597,3.148921608008826
16,10,3.5,0.3391138492194121,2.123796921640343,1.3795921732138896,10.507939645010987,0.44642624150342347,2.7958712969902657,0.030888672666414374,0.33856331510574034,0.13456315757852444,1.6119994073644917,0.34891787424429155,4.003626831349568,0.2113057195409207,3.0190174177477305
16,10,4.0,0.34364165807339986,2.4152399941412344,1.470889627531451,11.046041499403472,0.4012093477623708,2.8198468956636815,0.03451025356933912,0.4388028032274762,0.13916389963894793,1.6172391943437154,0.3832124462914537,4.597305911681511,0.20125614086152166,3.0724502392499846
16,15,1.5,0.20702427059709483,0.9252017452533132,0.547861046826565,3.6297172889638762,0.37551932608970673,1.6782145150058565,0.03198803714553122,0.23437123305567967,-0.024496734036324908,-0.14118539414779002,0.362291426935234,1.863299819881089,0.10252211675290801,1.1124248571483273
16,15,2.0,0.24758420448136298,1.308657996462901,0.7435298392955436,6.127531864514951,0.3668776900844539,1.9392086173615317,0.012253430066934579,0.14117960484134304,-0.007435779292479072,-0.05120862140446626,0.436812854588813,2.671091968535461,0.16763124283025443,1.8414715681730163
16,15,2.5,0.2832233137873179,1.958160509793552,1.1561579983904502,10.143729497871506,0.3073151284698088,2.1247274476973432,0.004419633821051594,0.049152015249917476,0.02791601871438809,0.2725943533895427,0.3972533665881879,3.3890111307002093,0.22865481877213245,3.127198095697756
16,15,3.0,0.33407231837745854,1.9436999800047092,1.269169112310239,9.860615061006007,0.42344223214604515,2.4636721239066666,0.00798310013836856,0.08024030322217779,0.12497833700018934,1.4319642446933063,0.42705976365998355,5.54588881204015,0.2135659234381706,3.1053083251210953
16,15,3.5,0.3282326597186629,1.8531840703640627,1.232777057842815,8.482809712045418,0.42066494125366605,2.375051796369436,0.004310320633607256,0.03735318294716732,0.1357955591831841,1.406718644376458,0.3908660260231238,3.720418744819592,0.22330778758112313,3.0230342286716096
16,15,4.0,0.34530162492766947,2.4394244521703037,1.442565465923988,10.738357263130093,0.4593374236289631,3.2450439329155136,0.03741310043415802,0.47839760557770505,0.12839179587136296,1.5741145021597993,0.3460798992146046,4.186798973922716,0.2120047565703349,3.2030928837286257
16,20,1.5,0.1903926248389194,0.884104400430681,0.5205119203220738,3.381793790978899,0.2665493678320916,1.237744735289747,0.03503627583630031,0.24471298105016373,-0.03327435348506391,-0.1913299032180571,0.4004353665429268,2.03308852894993,0.09251338366826412,0.9393001298212137
16,20,2.0,0.24477880410863828,1.2935663518861606,0.7186588250943098,5.865429365724004,0.393883301921764,2.0815290269564257,0.021179034765686833,0.22189815203066687,-0.007466462171693222,-0.05402465005910095,0.4098225489861149,2.5921907133212168,0.15782233446092464,2.116102841732865
16,20,2.5,0.27025753097543426,1.8889517169712515,0.8681946063513106,7.284619999865065,0.3754294658246402,2.6240457814865317,0.01464566672058587,0.1531826249215796,0.009974744216369125,0.08525673306602409,0.42903699704552856,3.2372475913412173,0.20872455551731584,2.742969376444195
16,20,3.0,0.3107699035739966,1.9540894127617894,1.1216222230424497,9.78034862630107,0.4268395813530863,2.6839236917005356,0.004472629890969415,0.05479273882466367,0.08519020563595081,0.9437139438405855,0.4216090529051897,5.214071512047455,0.19736710131616708,2.763167126070202
16,20,3.5,0.32726157167208947,1.9201787890730326,1.220995114226315,8.363956702214265,0.42979152391523834,2.5217643603213173,-0.006211247303062328,-0.05440233198709876,0.12481756724043547,1.3101981256646718,0.4141410062830009,4.793080916509973,0.21920107522758325,2.9650510259324236
16,20,4.0,0.3377836738392628,1.9342556096513572,1.3088176281503703,8.397840663772138,0.42230983434661895,2.4182790032788577,0.05251568240858928,0.6925710288774597,0.12640898085668728,1.3993512702421214,0.3707393018258762,3.767774137905744,0.21440202167554046,3.135293906694193
17,10,1.5,0.21891003585816726,1.16178154134291,0.8474447467010495,6.620564258701987,0.3350033342732328,2.236885906398392,0.0510394294763159,0.5197798644467587,-0.03832176167242374,-0.22971562839620296,0.28809240907582123,1.5289406068260551,0.12480055442892413,2.1824347530746584
17,10,2.0,0.25511793231236934,1.6564932011006968,0.8768771469764012,7.332297399511883,0.3909666708947075,2.5385656991021963,0.027901633951763927,0.33130276167430867,0.03482873703576783,0.2700874374187698,0.3202764420996491,2.1676527065375057,0.16726877472266422,3.1595572116458217
17,10,2.5,0.3078891893491027,1.870142697327054,1.5248504429988725,12.076767045408745,0.3704486245463403,2.250133534713563,0.008321744081373428,0.09117181217566295,0.1158175810891553,1.4674606373149786,0.27402450374873233,2.955040005344298,0.18496667913666065,4.124851515893124
17,10,3.0,0.3255544134492916,1.9543765583201205,1.4123786292612026,10.506851145348534,0.44635121680010137,2.679547009205746,0.002412679995391853,0.024428145102736738,0.13920629329068301,1.4703074489581167,0.31629241600639113,3.080634562697226,0.19417986685104216,4.2033670689371805
17,10,3.5,0.33766412633635623,2.0071286005177678,1.5708509457950348,12.534130385260008,0.44927974731453246,2.670589381976943,0.029294501206766466,0.3571031562248185,0.1516889190177404,1.8604902714385658,0.28469663194248374,3.358782668933177,0.1851842656702707,3.9206380943317205
17,10,4.0,0.3454749999374729,2.246226734993914,1.664080092575825,12.922362508962808,0.4179667976786403,2.7175575525160287,0.02569460254638356,0.38692925754709423,0.16343170794229778,2.0499618801150423,0.324436674083898,4.31832574045723,0.17673191726072646,4.255251945824168
17,15,1.5,0.20928603278232738,1.0717329713124948,0.7884269948582672,5.5759694460871305,0.32960116436157905,1.9929686055070173,0.04011389960658596,0.34787861832344275,-0.04294645946937836,-0.2483679220528899,0.3112459915271517,1.5938597854517962,0.10136678531240495,1.375324341324635
17,15,2.0,0.25640853942802355,1.7748911696664642,0.9850322142534071,8.718144727298384,0.37921639146966823,2.6249820934736543,0.02263128450128904,0.27172233553091996,0.03150026376735782,0.2575103572181488,0.3230500953096156,2.293700008304279,0.1450983197157789,2.4671169179927928
17,15,2.5,0.28533861001406047,1.994182372330594,1.415999345051179,12.725266807114396,0.30009600694836136,2.097319276328333,0.011128797333839424,0.1455978811295276,0.07086587767762786,0.803551130925109,0.29545987964611053,2.851391543890703,0.1910796064730933,4.127063696623244
17,15,3.0,0.3304376238237261,1.9358908505688839,1.4557792854903608,11.185483408009954,0.4487354189462065,2.6289463706093312,0.01202700811360935,0.137977913713134,0.1211805475181369,1.4540868032678147,0.33187615311862584,3.694050079733747,0.19586859552508162,4.533331466112209
17,15,3.5,0.3247555399815085,1.8106659828119207,1.4331199798039451,10.245070194728202,0.44779428622945106,2.4966652806581173,0.003923841643683756,0.04135785826129662,0.13231779928766962,1.2979507838156275,0.3106463291803916,2.827851280304294,0.19216856207753308,3.8375011596406323
17,15,4.0,0.346380466506667,2.260989605485278,1.6351621691644596,12.728604575849877,0.47899236962703395,3.1266103997023196,0.028587732884181927,0.43258514586498237,0.15180555752926228,2.0128131797395024,0.28210881260421816,3.7898803512744528,0.1878397419642519,4.323718631990888
17,20,1.5,0.19979520567662146,1.0682414437745407,0.7508945330884897,5.189746920563091,0.21919481973911514,1.2944359251623163,0.044268114062318675,0.3651199695010169,-0.030575884599248093,-0.18821464247581227,0.338915992786587,1.8120760617179774,0.12000168796377908,1.8347483998008256
17,20,2.0,0.2546398861068453,1.7411354195147277,0.9505101043075586,8.30810253949649,0.3955361512051101,2.7045331078760517,0.030968272662190488,0.33282558732100415,0.031121476050067765,0.26563578240226626,0.31036914932132964,2.2617821577907407,0.14239086356696506,2.6924947323625763
17,20,2.5,0.27323992021177457,2.1208831981988294,1.123184461817317,9.673095352644834,0.3765097314127266,2.9224615593969676,0.020757246394328188,0.2235041654157817,0.04847222643710558,0.4912896943755587,0.31608358683461346,2.754976999805935,0.1701340787693142,3.6014926049316993
17,20,3.0,0.3092308505353638,1.992475414317943,1.3814144975039966,12.289642045892311,0.4149776744428131,2.673836754601506,0.008953664883569523,0.11679202321793884,0.09889529199248104,1.2148322523323904,0.3202275791233109,3.623284888349975,0.17760214114253858,4.138499674486144
17,20,3.5,0.32656715724652075,1.8862414413012667,1.4198443946005637,10.250930369936606,0.464613641923344,2.683593515584782,-0.005832079072263685,-0.06259959006678409,0.13674944313817394,1.778564042614447,0.3237996384225261,3.8092932322305506,0.18745430834798027,3.785492527337053
17,20,4.0,0.3370777237906537,1.886871125673142,1.4773073447901108,9.822540633572297,0.4530243383383199,2.5359093256742153,0.03421576367511925,0.4874224289956645,0.1450380551817536,1.6808479129856748,0.30666711661742396,3.3944820933922037,0.19130416975013897,4.228015259450084
18,10,1.5,0.2072341686029815,1.1736677366583042,0.4547570515045074,2.80919601350811,0.5083469571096395,2.8790156884361533,0.04379356717035909,0.38809999434605624,0.0018688181613244481,0.012393569588218299,0.22045379450446467,1.2496878903225275,0.13583294509996802,2.2154442285755103
18,10,2.0,0.24227783493130928,1.31000662122346,0.523903221687336,3.3885134836207698,0.5749691404096089,3.108882746741155,0.019775714071280204,0.21967236563813114,0.043483267868062336,0.3474592398352257,0.27350389244715556,1.9559320721069402,0.1651696173086754,2.453586414782179
18,10,2.5,0.29416716195437465,1.7914270313574177,1.0323228861331892,7.485797722520289,0.5224901920692444,3.181874711893055,0.012861053545280665,0.13574934488504098,0.11636265523460332,1.236221440873968,0.24702025069684597,2.6349398118882865,0.18854946248805926,3.2870813644646106
18,10,3.0,0.3189075318277659,2.128246039524577,1.1053106893610205,8.1883746436762,0.5795878619547337,3.8679098128916727,0.00830954968407438,0.08729675409298727,0.15406317168338557,1.5892859207846486,0.2752520220848531,2.9789131066683767,0.1836201190648119,3.492599517036596
18,10,3.5,0.33103767043697796,2.3131712714263744,1.261283961770864,10.038814743938376,0.5743259152754601,4.013181357569308,0.03491709105046037,0.3917119988552254,0.1438595233646902,1.5147653753231987,0.26577548168007126,2.8789611616021227,0.17886048070122462,3.288984345896605
18,10,4.0,0.3368690023025127,2.435403882657581,1.3066652652654533,10.07833388854272,0.5468909802864508,3.953763651972849,0.03053910431106166,0.41164255066683725,0.1571189919033571,1.6809565777343725,0.3053111713741836,3.6808094937856777,0.16778462925447002,3.2553028136647404
18,15,1.5,0.1988836990443117,0.9924595444184201,0.3934628929570576,2.2238520427792956,0.5110426435663729,2.5501795856042713,0.03426104994800161,0.25939155359465815,0.006449823424031331,0.041551985496210586,0.24030564600640814,1.3235962511408341,0.11006318742230947,1.39465820437487
18,15,2.0,0.2423102838177602,1.4753555789519222,0.5902758920383868,4.104887230848491,0.5633936440379426,3.430337098290784,0.009350143822584922,0.10423790011606003,0.04041206086160076,0.3403447277481959,0.28634191100107853,2.1296193062778257,0.1427751205529768,2.430446792861895
18,15,2.5,0.2759103082162744,2.06445209853607,0.9696741113331906,8.072672855860327,0.4525555917222843,3.3861704808178494,0.016212370528048137,0.2348146924307053,0.08047597777587945,0.8443325257949719,0.26067882402226794,2.74704621376298,0.19524224630132547,3.051015734471854
18,15,3.0,0.3213142907025939,2.0700069882085304,1.1340164851459158,8.485748661167454,0.5834024037906327,3.7584604473818866,0.015985826889165944,0.1831807250250262,0.1323860088607709,1.4351769525592748,0.2924707591811626,3.454540792583517,0.1793247723632474,3.4744202206969983
18,15,3.5,0.31966648595746827,2.0731637940084475,1.12816524626147,8.025711088678241,0.597331328609535,3.873930292664509,0.009496457140553138,0.10358216431329721,0.13888797371197215,1.3412553121236332,0.2646979300613521,2.5475210735603255,0.1894205599673826,3.5975726243583135
18,15,4.0,0.3374962123398917,2.57550030965643,1.2736277837335415,9.719305377238598,0.6136180886444063,4.7529972229403885,0.03339690450909116,0.4524809198351189,0.1460160881637449,1.6412408312938558,0.2643415058175642,3.214999308338108,0.17902717274418856,3.351841999516908
18,20,1.5,0.188234138315315,0.9417243894122996,0.3479887861081652,1.979723555479004,0.38762868719182375,1.9392836604002526,0.03815337429143084,0.2713904306470087,0.01924748284045341,0.12807791065200452,0.2644277209378989,1.474767439811398,0.1349645167598017,1.59547566143689
18,20,2.0,0.24164951420078085,1.404653224174552,0.5326096372074025,3.402752955301337,0.6031125727475801,3.505755112531321,0.028485073498857094,0.32887947870158607,0.03894138947572001,0.3450102999724459,0.26848264215247175,2.0626810146799457,0.1401622061393777,2.7001367407140733
18,20,2.5,0.2619058137219119,1.686655852188977,0.6678764789954912,4.647611530179909,0.5659107421410414,3.6444271758788314,0.02655925139797688,0.3032848898499863,0.057121337206809786,0.5562280303129002,0.2770338639459724,2.576800505718036,0.1768625562793542,3.1742404881471864
18,20,3.0,0.291474507077196,1.7609223501716122,0.9610990020978292,8.001283869858458,0.5574665569537984,3.367894261000231,0.013466544868116603,0.18732260346589444,0.09159564956563382,0.9428334018549269,0.2920306529093444,3.151500018678593,0.1604073777616304,2.7756272033250657
18,20,3.5,0.32054021918152964,2.1669982727129473,1.1023098281963888,7.750351237808567,0.6117791452431589,4.135906422004844,-0.00025082660868080975,-0.0027580767476189294,0.1422547293544867,1.5963663462463922,0.2839600744006632,3.421323889126221,0.18347280731488103,3.513787427877448
18,20,4.0,0.32924742775529925,2.143416137040484,1.1738134509105524,7.757153842890982,0.591577956913238,3.8512001378721963,0.03973117483294919,0.5560789713073641,0.1350615191134672,1.3634591822622335,0.2734223339143098,2.7789551008762325,0.18620165840129443,3.688004176603999
19,10,1.5,0.15819281074122604,0.8162332957007985,0.6152284301845352,4.96959561236703,0.1702412164371525,0.8783999001314728,0.04019814749088191,0.29574305009139723,0.014761181079982144,0.09552910879892806,0.18649509758634708,1.1461227889719758,0.08925178426773561,0.9913346219742691
19,10,2.0,0.1981052956866196,0.8966214844415631,0.6001311711778523,4.436200982210381,0.26203127847355323,1.1859494874217356,0.025653352923036943,0.2678921695144747,0.04963776692830679,0.380589876280071,0.26454875595936556,1.895537352756823,0.13699270016421705,1.642848370729995
19,10,2.5,0.25843643637729996,1.566769316069677,1.1487880412357048,8.66949255336376,0.2790090526126823,1.6914906762644775,0.007140097875739437,0.06424640809261503,0.12809146120777193,1.359923875367262,0.22646395230033178,2.666595082514211,0.17248846244051763,2.6521917128324874
19,10,3.0,0.2800541937041636,1.6343172821474647,1.2305657351277985,9.871537717842616,0.3134944672485638,1.8294652863622622,0.009071353752355904,0.08099256687043764,0.16736576264836645,1.653092735704365,0.23111591658889163,2.254613441671329,0.17872691236911886,2.748727637575127
19,10,3.5,0.2954739433868998,1.7430542568470688,1.3536651493743355,10.749536920877135,0.3396331697012567,2.003557523307774,0.039426658558590066,0.4016224288666222,0.1622371298675207,1.7353819011619571,0.22541576558768028,2.332318027182188,0.16783350114880236,2.6618646370364285
19,10,4.0,0.3043897974873466,1.8565078676028113,1.4446922345430444,11.291738154210297,0.3108102694980457,1.8956670539486742,0.03412285835450235,0.42479810263110324,0.17900440730775724,2.011266925858332,0.26795482876334376,3.2180548231541106,0.15723759767547563,2.744723632112769
19,15,1.5,0.1505465168947493,0.7487767603448348,0.5939697729770341,4.826479626677846,0.16025710986121022,0.7970745655178189,0.02811901384069282,0.17902157382608375,0.020285082102037277,0.12845593582841494,0.20673578866723785,1.2433102203845643,0.056070993351159615,0.5070242193848901
19,15,2.0,0.19927027063878766,0.9771219664794346,0.6753240987381597,5.363665050263314,0.26602304969259594,1.304444283691806,0.014554950747610373,0.15414317425221236,0.045416727488042374,0.3689296293221654,0.2763227333439813,2.0912441219284683,0.10939859014026632,1.349132919256808
19,15,2.5,0.23739562352017085,1.4528608894232453,1.0902453185307674,9.905341031173222,0.20370939620505313,1.2467012245876503,0.018177507905085877,0.20319520319817502,0.0791411309153851,0.7620725510993418,0.24072335478137297,2.505326155205466,0.17809571050090423,2.4257815286439968
19,15,3.0,0.28392465351143836,1.6952043399505254,1.2730490156401282,10.358540807352883,0.312031324490168,1.8630184062368984,0.017943700252826877,0.1739759032489969,0.14559664997551947,1.531249475220596,0.24713409084417703,2.7635268299727724,0.18124972097410863,2.9452042176298
19,15,3.5,0.27847482043240745,1.5628723525578365,1.2309853157432409,9.009456580598691,0.32883282047325624,1.845494407477348,0.010525890941567306,0.09251597701951271,0.15152738529264265,1.3642272210962234,0.22509208335951292,1.9448564083414495,0.17664827252545368,2.5903135717064694
19,15,4.0,0.30355152761730597,1.8740102175615494,1.429738098853909,11.440571531850136,0.35542204069516625,2.1942387871921385,0.03748599854549739,0.4671988957017754,0.1638541146663519,1.9368835045387258,0.22557537297402863,2.6472363897061095,0.17005503690023205,2.8466727189428345
19,20,1.5,0.1546413257606558,0.7280374958388565,0.5248644963103115,3.875952263682346,0.18734978662007573,0.8820259967761258,0.02827514421121813,0.18623353893754127,0.028985704034617976,0.22123108677300937,0.2071262700342329,1.4217156121708687,0.07430883693677148,0.7945953298837708
19,20,2.0,0.19824733321425714,0.9712182688010302,0.6298891477369446,4.850516186913415,0.2897303364581165,1.419395616736374,0.024779973312112347,0.23201844874571584,0.045534373757091684,0.3918630727871839,0.2634166646514391,2.127389066491402,0.10504815806274115,1.282588457891193
19,20,2.5,0.22375069388804625,1.4203505116941275,0.8230600150600449,7.186716145605795,0.27378528323705154,1.737965860050649,0.03007802832810591,0.28798143574531126,0.05763422481519509,0.5404102159589413,0.2672207085681646,2.6226194202457527,0.14406364247747483,1.9147481077763158
19,20,3.0,0.25378716538564916,1.5388828024845096,1.0988079147190493,10.56551297923896,0.30232642537918486,1.8332090830742698,0.014812762215590913,0.16545821628588214,0.09944509157159298,0.982782887414109,0.236708872413933,2.4382470349493315,0.15724752638690154,2.3081391219300946
19,20,3.5,0.2816541524786642,1.6128726045526376,1.21802265685526,8.852305556599214,0.3372598829496283,1.9312948914015757,-0.000815756183941696,-0.007539909041319476,0.15531396959986,1.7481255702306848,0.24357466917080517,2.699075872989891,0.18260644963829153,2.871577768812006
19,20,4.0,0.29431830134454073,1.6759236500987291,1.3268874339739796,10.178154334263017,0.32901096763254567,1.8734725610955574,0.04488388047997871,0.5325893495670988,0.15197455631539514,1.5722534820522065,0.2327549965717175,2.2877606516175173,0.17782192292005217,2.95657336143683
20,10,1.5,0.19494259194751762,0.9850158155474443,0.5351399499979388,3.2604566723855113,0.4443052096387521,2.245007897207589,0.059256824514057005,0.521227677219572,0.026178472483384008,0.18861093911501575,0.21098897092168745,1.3146397706469612,0.07480551068333119,1.1995783031822946
20,10,2.0,0.22658552470801685,0.9695266145280877,0.5287639628104734,2.835285542674652,0.5268356468025868,2.254253362898761,0.03621915849126811,0.41793159948993297,0.054984673120686,0.4317385079064774,0.28154689817083467,2.030622464658648,0.11322179697622614,1.5700095530078122
20,10,2.5,0.28777044435764343,2.1080832070788458,1.121488943260391,8.215548380894857,0.5087101085871393,3.795520688171861,0.02046018576965536,0.21487465735661795,0.10649342461164779,1.0304171963422528,0.2538972701205173,2.681128889293272,0.15456135255794656,2.684881747090091
20,10,3.0,0.3018471526995279,2.2002237139401197,1.2087912291528626,9.459875636410127,0.5493835762650501,4.00456576031,0.006043572480818771,0.060138634991826555,0.13636419606343986,1.2763000936471074,0.24607918823935981,2.2773040532219633,0.15541131546064157,2.6410812380066746
20,10,3.5,0.31174768032765465,2.1912399067429793,1.2595316228632343,9.519322161734538,0.5776456122637676,4.060207011699346,0.035439176746635326,0.40241846750957455,0.13235675346227316,1.2809238476544338,0.23083915214581174,2.1620925986367645,0.15091607776734062,2.604683397232378
20,10,4.0,0.31962348225897297,2.3325509508477666,1.3807390881636783,10.719468629942911,0.5302725084081605,3.8698271946543166,0.030666103056517624,0.42693366234655783,0.14625300231954785,1.4989226055018692,0.262977567522515,2.769072062253161,0.14357320957036124,2.70812366299179
20,15,1.5,0.18759518057932234,0.9243112430765162,0.51417739622974,3.2010380260326623,0.43632746809570033,2.149854720033355,0.049781390606799425,0.377188513587406,0.031069338300204974,0.21977175218442482,0.22310506845643685,1.365116021578106,0.04755819194805633,0.6027999692407583
20,15,2.0,0.22848857710251602,1.0650691479317775,0.5954504948690145,3.422970663770575,0.5240093151961591,2.442599809240712,0.030075801844185568,0.35515668920904214,0.05040039031380461,0.4212508470095874,0.29538860222124574,2.2284750022091817,0.09038687371611265,1.2886533512062106
20,15,2.5,0.266100220321865,2.0138589124361252,1.035379133909057,8.94479702455563,0.4207213187148635,3.1840386164317223,0.027837484761723097,0.3317607518845479,0.06700846861507226,0.6233437254231288,0.2733617096294938,2.7960838061349085,0.1616111391002124,2.561473892723728
20,15,3.0,0.3059492887855437,2.267212273236832,1.2245897843787663,9.074722807315025,0.5621451051486768,4.305429483314172,0.013742343234377952,0.1484323736919207,0.11765003467580537,1.1436462456582608,0.2593589738426054,2.6509071439917187,0.15900236896253306,2.8528761947774908
20,15,3.5,0.29830267446682934,2.0183407951743986,1.1345953673742848,7.830616200981293,0.5792637591894894,3.9193469466135564,0.009757738799284432,0.09622275779055792,0.12456793988472636,1.0652160993828004,0.23952486416382812,1.9747956923403647,0.1577308820218466,2.5603410505182382
20,15,4.0,0.3216128041276405,2.43048072979347,1.3658936024397619,10.989586611222839,0.5966856094967627,4.509251052863524,0.033349026462805575,0.4688484359962931,0.1327927840724381,1.4359741222479927,0.22799242351261406,2.402215243671776,0.15307972436511208,2.907664710613094
20,20,1.5,0.17008260637007577,0.8219975225736627,0.45449550938923555,2.747801047246633,0.3196687806808456,1.5449372006450488,0.05565860836255454,0.3945431340621496,0.03522617783135362,0.2580408394193571,0.24451424238978636,1.5174820972285261,0.04926098119794964,0.6228970890274262
20,20,2.0,0.22739419769301072,1.049180594452725,0.566026340211292,3.1273165135360834,0.5507544731403129,2.541141820632355,0.03886572326662785,0.40823529170622336,0.045258023518091495,0.39494756917049256,0.2786644984772786,2.214550089097182,0.09085151249514922,1.6199707828264367
20,20,2.5,0.25207656343287144,1.7182249504189957,0.7744468680433334,5.836096138145399,0.5188785794308008,3.536822738593818,0.025822928486357588,0.27834982994133334,0.048552395264598314,0.43671563130887275,0.2970387821316789,2.793054830631399,0.13504377446973503,2.059457073704589
20,20,3.0,0.2768896619504726,1.6946251065374818,1.0597877710979602,9.12558930552172,0.5390107906378918,3.298863569247211,0.010979807090426563,0.12970363150356645,0.07932591883720663,0.7195581072009782,0.2517580963797994,2.3614584660325355,0.1415940908468294,2.3334244559427746
20,20,3.5,0.30265761029043325,2.108274320367272,1.1333361988409987,7.894675445518313,0.5957107549473382,4.155324458586447,-0.00024260622396310438,-0.0025366632886975344,0.12669384036646125,1.293348574986735,0.25655332715455126,2.583735752724724,0.16209853413509667,2.838490982077192
20,20,4.0,0.31249641664386885,2.1814259452077343,1.3155030606148195,11.664219861980877,0.5553192286399105,3.87648532497697,0.03951676119274605,0.5333400699530937,0.12088617137303781,1.1522791247743085,0.23460853159590367,2.1407219709173266,0.154369416590183,2.820674012206966
